T(K)        G9/(RT)
1.30000e+03 -2.58250798e+01
1.32362e+03 -2.57888576e+01
1.34724e+03 -2.57538091e+01
1.37085e+03 -2.57198601e+01
1.39447e+03 -2.56869428e+01
1.41809e+03 -2.56549952e+01
1.44171e+03 -2.56239604e+01
1.46533e+03 -2.55937860e+01
1.48894e+03 -2.55644241e+01
1.51256e+03 -2.55358303e+01
1.53618e+03 -2.55079635e+01
1.55980e+03 -2.54807861e+01
1.58342e+03 -2.54542629e+01
1.60704e+03 -2.54283615e+01
1.63065e+03 -2.54030515e+01
1.65427e+03 -2.53783051e+01
1.67789e+03 -2.53540959e+01
1.70151e+03 -2.53303996e+01
1.72513e+03 -2.53071935e+01
1.74874e+03 -2.52844561e+01
1.77236e+03 -2.52621677e+01
1.79598e+03 -2.52403094e+01
1.81960e+03 -2.52188637e+01
1.84322e+03 -2.51978141e+01
1.86683e+03 -2.51771452e+01
1.89045e+03 -2.51568422e+01
1.91407e+03 -2.51368915e+01
1.93769e+03 -2.51172799e+01
1.96131e+03 -2.50979953e+01
1.98492e+03 -2.50790261e+01
2.00854e+03 -2.50603611e+01
2.03216e+03 -2.50419899e+01
2.05578e+03 -2.50239027e+01
2.07940e+03 -2.50060902e+01
2.10302e+03 -2.49885432e+01
2.12663e+03 -2.49712534e+01
2.15025e+03 -2.49542127e+01
2.17387e+03 -2.49374133e+01
2.19749e+03 -2.49208479e+01
2.22111e+03 -2.49045094e+01
2.24472e+03 -2.48883913e+01
2.26834e+03 -2.48724870e+01
2.29196e+03 -2.48567905e+01
2.31558e+03 -2.48412958e+01
2.33920e+03 -2.48259973e+01
2.36281e+03 -2.48108897e+01
2.38643e+03 -2.47959677e+01
2.41005e+03 -2.47812264e+01
2.43367e+03 -2.47666610e+01
2.45729e+03 -2.47522669e+01
2.48090e+03 -2.47380397e+01
2.50452e+03 -2.47239946e+01
2.52814e+03 -2.47100880e+01
2.55176e+03 -2.46963360e+01
2.57538e+03 -2.46827348e+01
2.59899e+03 -2.46692807e+01
2.62261e+03 -2.46559703e+01
2.64623e+03 -2.46428002e+01
2.66985e+03 -2.46297670e+01
2.69347e+03 -2.46168677e+01
2.71709e+03 -2.46040990e+01
2.74070e+03 -2.45914582e+01
2.76432e+03 -2.45789421e+01
2.78794e+03 -2.45665482e+01
2.81156e+03 -2.45542735e+01
2.83518e+03 -2.45421156e+01
2.85879e+03 -2.45300717e+01
2.88241e+03 -2.45181395e+01
2.90603e+03 -2.45063166e+01
2.92965e+03 -2.44946005e+01
2.95327e+03 -2.44829891e+01
2.97688e+03 -2.44714800e+01
3.00050e+03 -2.44600712e+01
3.02412e+03 -2.44487605e+01
3.04774e+03 -2.44375459e+01
3.07136e+03 -2.44264254e+01
3.09497e+03 -2.44153971e+01
3.11859e+03 -2.44044591e+01
3.14221e+03 -2.43936095e+01
3.16583e+03 -2.43828466e+01
3.18945e+03 -2.43721687e+01
3.21307e+03 -2.43615739e+01
3.23668e+03 -2.43510607e+01
3.26030e+03 -2.43406274e+01
3.28392e+03 -2.43302724e+01
3.30754e+03 -2.43199943e+01
3.33116e+03 -2.43097914e+01
3.35477e+03 -2.42996623e+01
3.37839e+03 -2.42896055e+01
3.40201e+03 -2.42796197e+01
3.42563e+03 -2.42697034e+01
3.44925e+03 -2.42598553e+01
3.47286e+03 -2.42500740e+01
3.49648e+03 -2.42403583e+01
3.52010e+03 -2.42307069e+01
3.54372e+03 -2.42211185e+01
3.56734e+03 -2.42115919e+01
3.59095e+03 -2.42021259e+01
3.61457e+03 -2.41927193e+01
3.63819e+03 -2.41833710e+01
3.66181e+03 -2.41740798e+01
3.68543e+03 -2.41648446e+01
3.70905e+03 -2.41556643e+01
3.73266e+03 -2.41465378e+01
3.75628e+03 -2.41374641e+01
3.77990e+03 -2.41284421e+01
3.80352e+03 -2.41194708e+01
3.82714e+03 -2.41105492e+01
3.85075e+03 -2.41016763e+01
3.87437e+03 -2.40928510e+01
3.89799e+03 -2.40840726e+01
3.92161e+03 -2.40753399e+01
3.94523e+03 -2.40666521e+01
3.96884e+03 -2.40580082e+01
3.99246e+03 -2.40494074e+01
4.01608e+03 -2.40408487e+01
4.03970e+03 -2.40323312e+01
4.06332e+03 -2.40238541e+01
4.08693e+03 -2.40154165e+01
4.11055e+03 -2.40070176e+01
4.13417e+03 -2.39986564e+01
4.15779e+03 -2.39903323e+01
4.18141e+03 -2.39820443e+01
4.20503e+03 -2.39737917e+01
4.22864e+03 -2.39655736e+01
4.25226e+03 -2.39573893e+01
4.27588e+03 -2.39492380e+01
4.29950e+03 -2.39411188e+01
4.32312e+03 -2.39330311e+01
4.34673e+03 -2.39249740e+01
4.37035e+03 -2.39169469e+01
4.39397e+03 -2.39089489e+01
4.41759e+03 -2.39009793e+01
4.44121e+03 -2.38930375e+01
4.46482e+03 -2.38851226e+01
4.48844e+03 -2.38772339e+01
4.51206e+03 -2.38693708e+01
4.53568e+03 -2.38615325e+01
4.55930e+03 -2.38537183e+01
4.58291e+03 -2.38459276e+01
4.60653e+03 -2.38381596e+01
4.63015e+03 -2.38304136e+01
4.65377e+03 -2.38226891e+01
4.67739e+03 -2.38149852e+01
4.70101e+03 -2.38073014e+01
4.72462e+03 -2.37996369e+01
4.74824e+03 -2.37919912e+01
4.77186e+03 -2.37843635e+01
4.79548e+03 -2.37767531e+01
4.81910e+03 -2.37691596e+01
4.84271e+03 -2.37615821e+01
4.86633e+03 -2.37540201e+01
4.88995e+03 -2.37464729e+01
4.91357e+03 -2.37389400e+01
4.93719e+03 -2.37314205e+01
4.96080e+03 -2.37239141e+01
4.98442e+03 -2.37164199e+01
5.00804e+03 -2.37089374e+01
5.03166e+03 -2.37014660e+01
5.05528e+03 -2.36940051e+01
5.07889e+03 -2.36865540e+01
5.10251e+03 -2.36791122e+01
5.12613e+03 -2.36716790e+01
5.14975e+03 -2.36642538e+01
5.17337e+03 -2.36568361e+01
5.19698e+03 -2.36494252e+01
5.22060e+03 -2.36420206e+01
5.24422e+03 -2.36346216e+01
5.26784e+03 -2.36272277e+01
5.29146e+03 -2.36198382e+01
5.31508e+03 -2.36124526e+01
5.33869e+03 -2.36050703e+01
5.36231e+03 -2.35976908e+01
5.38593e+03 -2.35903133e+01
5.40955e+03 -2.35829375e+01
5.43317e+03 -2.35755626e+01
5.45678e+03 -2.35681881e+01
5.48040e+03 -2.35608134e+01
5.50402e+03 -2.35534380e+01
5.52764e+03 -2.35460613e+01
5.55126e+03 -2.35386827e+01
5.57487e+03 -2.35313017e+01
5.59849e+03 -2.35239176e+01
5.62211e+03 -2.35165300e+01
5.64573e+03 -2.35091382e+01
5.66935e+03 -2.35017418e+01
5.69296e+03 -2.34943400e+01
5.71658e+03 -2.34869325e+01
5.74020e+03 -2.34795185e+01
5.76382e+03 -2.34720976e+01
5.78744e+03 -2.34646692e+01
5.81106e+03 -2.34572328e+01
5.83467e+03 -2.34497878e+01
5.85829e+03 -2.34423336e+01
5.88191e+03 -2.34348697e+01
5.90553e+03 -2.34273955e+01
5.92915e+03 -2.34199105e+01
5.95276e+03 -2.34124142e+01
5.97638e+03 -2.34049060e+01
6.00000e+03 2.36531635e+01
